  64.61
  62.63
  60.65
  58.65
  56.64
  54.64
  52.63
  50.63
  48.63
  46.63
  44.61
  42.60
  40.58
  38.56
  36.54
  34.52
  32.50
  30.48
  28.46
  26.44
  24.43
  22.43
  20.43
  18.42
  16.42
  14.42
  12.43
  10.44
   8.45
   6.46
   4.47
   2.48
   0.47
  -1.54
  -3.54
  -5.55
  -7.56
  -9.57
 -11.56
 -13.55
 -15.53
 -17.53
 -19.52
 -21.52
 -23.52
 -25.52
 -27.52
 -29.52
 -31.51
 -33.49
 -35.47
 -37.44
 -39.42
 -41.39
 -43.37
 -45.36
 -47.35
 -49.34
 -51.35
 -53.35
 -55.36
